freq,psd_x,psd_y,psd_z,psd_xyz
0.0,5.345e+01,4.264e+00,1.190e+01,6.961e+01
1.6,4.830e+01,2.094e+01,5.852e+01,1.278e+02
3.1,3.261e+01,2.688e+01,7.663e+01,1.361e+02
4.7,1.920e+02,2.484e+01,8.193e+01,2.988e+02
6.3,5.987e+02,2.515e+01,7.578e+01,6.996e+02
7.8,9.964e+02,2.672e+01,7.188e+01,1.095e+03
9.4,1.432e+03,2.708e+01,7.220e+01,1.531e+03
10.9,1.936e+03,2.500e+01,7.604e+01,2.037e+03
12.5,2.575e+03,2.293e+01,1.099e+02,2.707e+03
14.1,3.442e+03,2.348e+01,1.156e+02,3.581e+03
15.6,4.578e+03,2.419e+01,1.065e+02,4.709e+03
17.2,4.743e+03,2.598e+01,9.983e+01,4.869e+03
18.8,3.581e+03,2.502e+01,9.367e+01,3.699e+03
20.3,2.904e+03,2.555e+01,8.018e+01,3.010e+03
21.9,3.118e+03,2.703e+01,7.216e+01,3.217e+03
23.4,3.715e+03,2.707e+01,7.135e+01,3.814e+03
25.0,4.538e+03,2.804e+01,7.324e+01,4.639e+03
26.6,5.249e+03,2.700e+01,6.880e+01,5.344e+03
28.1,5.707e+03,2.701e+01,6.949e+01,5.803e+03
29.7,6.917e+03,2.637e+01,7.392e+01,7.017e+03
31.3,8.769e+03,2.717e+01,8.251e+01,8.878e+03
32.8,1.066e+04,2.827e+01,7.746e+01,1.077e+04
34.4,1.204e+04,3.406e+01,1.048e+02,1.217e+04
35.9,1.310e+04,6.879e+01,2.154e+02,1.339e+04
37.5,1.636e+04,8.617e+01,2.528e+02,1.670e+04
39.1,2.156e+04,6.870e+01,1.856e+02,2.181e+04
40.6,2.985e+04,6.949e+01,1.806e+02,3.010e+04
42.2,4.506e+04,9.167e+01,2.161e+02,4.537e+04
43.8,7.861e+04,1.661e+02,2.977e+02,7.908e+04
45.3,1.420e+05,2.666e+02,4.435e+02,1.427e+05
46.9,1.457e+05,2.194e+02,4.805e+02,1.464e+05
48.4,6.136e+04,1.008e+02,3.044e+02,6.176e+04
50.0,1.518e+04,4.639e+01,1.579e+02,1.538e+04
51.6,9.435e+03,7.073e+01,1.620e+02,9.667e+03
53.1,2.017e+04,1.713e+02,2.922e+02,2.063e+04
54.7,4.296e+04,2.855e+02,5.985e+02,4.384e+04
56.3,5.804e+04,3.712e+02,9.521e+02,5.936e+04
57.8,3.623e+04,3.639e+02,1.005e+03,3.760e+04
59.4,1.936e+04,5.695e+02,1.764e+03,2.169e+04
61.0,1.836e+04,9.717e+02,3.744e+03,2.307e+04
62.5,2.134e+04,9.562e+02,4.775e+03,2.707e+04
64.1,3.143e+04,6.359e+02,4.360e+03,3.643e+04
65.6,3.787e+04,3.500e+02,3.350e+03,4.157e+04
67.2,3.559e+04,1.820e+02,2.444e+03,3.821e+04
68.8,2.775e+04,9.405e+01,1.766e+03,2.961e+04
70.3,2.295e+04,5.646e+01,1.408e+03,2.441e+04
71.9,1.869e+04,4.200e+01,1.108e+03,1.984e+04
73.5,1.464e+04,4.451e+01,8.410e+02,1.553e+04
75.0,1.106e+04,4.440e+01,6.374e+02,1.174e+04
76.6,8.048e+03,4.593e+01,5.217e+02,8.616e+03
78.1,5.735e+03,3.752e+01,4.841e+02,6.256e+03
79.7,4.084e+03,3.144e+01,4.873e+02,4.602e+03
81.3,3.026e+03,2.957e+01,5.164e+02,3.572e+03
82.8,2.357e+03,3.070e+01,5.449e+02,2.933e+03
84.4,1.985e+03,3.759e+01,6.457e+02,2.668e+03
86.0,1.722e+03,4.676e+01,8.029e+02,2.572e+03
87.5,1.583e+03,6.592e+01,1.017e+03,2.666e+03
89.1,1.438e+03,7.985e+01,1.103e+03,2.621e+03
90.6,1.181e+03,8.002e+01,8.910e+02,2.152e+03
92.2,9.568e+02,7.515e+01,5.766e+02,1.609e+03
93.8,9.582e+02,8.085e+01,3.745e+02,1.414e+03
95.3,1.177e+03,1.052e+02,2.986e+02,1.581e+03
96.9,9.708e+02,9.960e+01,2.902e+02,1.361e+03
98.5,4.876e+02,6.354e+01,2.942e+02,8.453e+02
100.0,2.744e+02,5.393e+01,3.511e+02,6.795e+02
101.6,3.356e+02,5.341e+01,5.414e+02,9.304e+02
103.1,5.266e+02,6.966e+01,8.392e+02,1.435e+03
104.7,8.260e+02,9.257e+01,1.120e+03,2.039e+03
106.3,1.263e+03,1.282e+02,1.255e+03,2.646e+03
107.8,1.601e+03,1.540e+02,1.224e+03,2.979e+03
109.4,1.899e+03,1.679e+02,1.031e+03,3.097e+03
111.0,2.249e+03,1.954e+02,7.964e+02,3.241e+03
112.5,2.390e+03,1.894e+02,5.636e+02,3.143e+03
114.1,2.380e+03,1.729e+02,3.737e+02,2.927e+03
115.7,2.286e+03,1.709e+02,3.344e+02,2.791e+03
117.2,2.290e+03,1.546e+02,3.226e+02,2.768e+03
118.8,2.638e+03,1.828e+02,3.610e+02,3.182e+03
120.3,2.811e+03,2.216e+02,3.896e+02,3.422e+03
121.9,3.022e+03,3.559e+02,4.144e+02,3.793e+03
123.5,2.788e+03,6.722e+02,3.772e+02,3.837e+03
125.0,2.681e+03,8.861e+02,3.360e+02,3.903e+03
126.6,3.909e+03,9.540e+02,3.314e+02,5.194e+03
128.2,5.037e+03,9.805e+02,3.203e+02,6.338e+03
129.7,5.160e+03,1.036e+03,3.149e+02,6.511e+03
131.3,5.320e+03,1.084e+03,3.161e+02,6.721e+03
132.8,6.111e+03,1.204e+03,2.956e+02,7.610e+03
134.4,7.609e+03,1.406e+03,3.112e+02,9.326e+03
136.0,8.439e+03,1.400e+03,3.762e+02,1.022e+04
137.5,8.667e+03,1.197e+03,4.568e+02,1.032e+04
139.1,8.205e+03,9.943e+02,5.468e+02,9.746e+03
140.7,7.201e+03,8.853e+02,5.540e+02,8.641e+03
142.2,6.267e+03,7.887e+02,4.832e+02,7.539e+03
143.8,5.761e+03,7.033e+02,4.236e+02,6.888e+03
145.3,5.554e+03,6.214e+02,3.925e+02,6.568e+03
146.9,5.220e+03,5.794e+02,3.695e+02,6.169e+03
148.5,4.969e+03,5.842e+02,3.500e+02,5.904e+03
150.0,4.522e+03,5.760e+02,3.856e+02,5.484e+03
151.6,3.786e+03,4.675e+02,4.104e+02,4.664e+03
153.2,3.088e+03,3.608e+02,4.116e+02,3.860e+03
154.7,2.451e+03,2.589e+02,3.509e+02,3.061e+03
156.3,1.822e+03,2.009e+02,3.206e+02,2.343e+03
157.8,1.536e+03,1.952e+02,3.502e+02,2.082e+03
159.4,1.336e+03,1.825e+02,3.623e+02,1.881e+03
161.0,1.059e+03,1.340e+02,3.154e+02,1.509e+03
162.5,8.303e+02,1.103e+02,2.640e+02,1.205e+03
164.1,6.100e+02,1.004e+02,1.939e+02,9.043e+02
165.7,4.585e+02,8.673e+01,1.540e+02,6.992e+02
167.2,4.175e+02,9.346e+01,1.507e+02,6.617e+02
168.8,5.553e+02,1.273e+02,1.527e+02,8.353e+02
170.4,7.981e+02,1.550e+02,1.465e+02,1.100e+03
171.9,9.144e+02,1.822e+02,1.367e+02,1.233e+03
173.5,8.274e+02,1.756e+02,1.191e+02,1.122e+03
175.0,8.433e+02,1.381e+02,1.177e+02,1.099e+03
176.6,1.119e+03,1.135e+02,1.140e+02,1.347e+03
178.2,1.268e+03,1.007e+02,1.080e+02,1.477e+03
179.7,1.176e+03,1.031e+02,1.025e+02,1.382e+03
181.3,1.075e+03,1.159e+02,1.110e+02,1.302e+03
182.9,9.084e+02,1.470e+02,1.203e+02,1.176e+03
184.4,7.638e+02,1.899e+02,1.398e+02,1.093e+03
186.0,8.505e+02,1.764e+02,1.424e+02,1.169e+03
187.5,9.732e+02,1.693e+02,1.516e+02,1.294e+03
189.1,1.038e+03,1.838e+02,1.472e+02,1.369e+03
190.7,7.575e+02,1.821e+02,1.386e+02,1.078e+03
192.2,4.458e+02,1.879e+02,1.196e+02,7.533e+02
193.8,2.974e+02,1.986e+02,1.086e+02,6.046e+02
195.4,2.340e+02,2.242e+02,1.116e+02,5.698e+02
196.9,2.056e+02,2.494e+02,1.057e+02,5.607e+02
198.5,1.662e+02,2.629e+02,1.030e+02,5.322e+02
